t	s(t)
50	94.41666666666667
100	124.43055555555556
150	151.19444444444446
200	176.15277777777777
250	199.13888888888889
300	221.29166666666666
350	241.75
400	261.0138888888889
450	279.7083333333333
500	297.8333333333333
550	315.52777777777777
600	332.9861111111111
650	350.52777777777777
700	366.375
