t	a(t)
100	14.516154166666666
150	15.343368055555553
200	16.178059722222223
250	16.747531944444447
300	17.33763194444444
350	17.66593055555556
400	18.145823611111112
450	18.30685833333333
500	18.738659722222224
550	18.87420972222223
600	19.330563888888893
650	19.532129166666667
700	19.72509583333333
