t	a(t)
50	14.018296460176987
100	15.18758407079646
150	16.109285840707958
200	16.787438053097343
250	17.29615132743363
300	17.67632831858407
350	18.140538053097345
400	18.32957699115044
450	18.583534513274337
500	18.82463097345133
550	19.017090265486726
600	19.169969026548664
650	19.2912168141593
700	19.4959407079646
750	19.73002743362832
800	19.89700619469027
850	20.02044424778762
900	20.091037168141586
950	20.214715044247786
