t	b(t)
50	2.1339920353982307
100	1.9008743362831857
150	1.7781805309734529
200	1.694958407079646
250	1.6130274336283188
300	1.5282938053097344
350	1.4973336283185843
400	1.4098008849557515
450	1.3462504424778754
500	1.3049398230088491
550	1.2620707964601767
600	1.2092823008849556
650	1.1640159292035397
700	1.1432902654867259
750	1.124356637168141
800	1.1055362831858413
850	1.0810407079646018
900	1.0493079646017702
950	1.0323787610619466
